t	Vt	phi	theta	psi	PN	PE	H	ele	ail	rud	eng	H_cmd
0.010000	29.999993	0.000000	0.993268	0.000000	-1099.700000	0.000000	50.000001	0.993035	0.000000	0.000000	46.266713	50.000000
0.020000	29.999987	0.000000	0.992913	0.000000	-1099.400000	0.000000	50.000005	0.990677	0.000000	0.000000	46.273574	50.000000
0.030000	29.999983	0.000000	0.992454	0.000000	-1099.100000	0.000000	50.000012	0.988755	0.000000	0.000000	46.278913	50.000000
0.040000	29.999979	0.000000	0.991990	0.000000	-1098.800001	0.000000	50.000020	0.987951	0.000000	0.000000	46.282934	50.000000
0.050000	29.999977	0.000000	0.991578	0.000000	-1098.500001	0.000000	50.000030	0.987961	0.000000	0.000000	46.285887	50.000000
0.060000	29.999976	0.000000	0.991241	0.000000	-1098.200001	0.000000	50.000041	0.988386	0.000000	0.000000	46.288021	50.000000
0.070000	29.999975	0.000000	0.990978	0.000000	-1097.900001	0.000000	50.000054	0.988953	0.000000	0.000000	46.289558	50.000000
0.080000	29.999974	0.000000	0.990780	0.000000	-1097.600001	0.000000	50.000068	0.989517	0.000000	0.000000	46.290676	50.000000
0.090000	29.999974	0.000000	0.990637	0.000000	-1097.300002	0.000000	50.000082	0.990017	0.000000	0.000000	46.291510	50.000000
0.105000	29.999974	0.000000	0.990501	0.000000	-1096.850002	0.000000	50.000105	0.990778	0.000000	0.000000	46.292684	50.000000
0.115000	29.999974	0.000000	0.990449	0.000000	-1096.550002	0.000000	50.000122	0.991056	0.000000	0.000000	46.293141	50.000000
0.125000	29.999974	0.000000	0.990421	0.000000	-1096.250003	0.000000	50.000139	0.991280	0.000000	0.000000	46.293557	50.000000
0.135000	29.999974	0.000000	0.990410	0.000000	-1095.950003	0.000000	50.000157	0.991463	0.000000	0.000000	46.293954	50.000000
0.145000	29.999974	0.000000	0.990412	0.000000	-1095.650003	0.000000	50.000175	0.991613	0.000000	0.000000	46.294342	50.000000
0.155000	29.999974	0.000000	0.990424	0.000000	-1095.350004	0.000000	50.000194	0.991737	0.000000	0.000000	46.294729	50.000000
0.165000	29.999974	0.000000	0.990445	0.000000	-1095.050004	0.000000	50.000213	0.991841	0.000000	0.000000	46.295118	50.000000
0.175000	29.999974	0.000000	0.990470	0.000000	-1094.750004	0.000000	50.000233	0.991930	0.000000	0.000000	46.295511	50.000000
0.185000	29.999974	0.000000	0.990500	0.000000	-1094.450004	0.000000	50.000253	0.992006	0.000000	0.000000	46.295908	50.000000
0.195000	29.999974	0.000000	0.990532	0.000000	-1094.150005	0.000000	50.000274	0.992072	0.000000	0.000000	46.296308	50.000000
0.205000	29.999974	0.000000	0.990566	0.000000	-1093.850005	0.000000	50.000296	0.992130	0.000000	0.000000	46.296709	50.000000
0.220000	29.999974	0.000000	0.990619	0.000000	-1093.400005	0.000000	50.000328	0.992183	0.000000	0.000000	46.297111	50.000000
0.230000	29.999974	0.000000	0.990655	0.000000	-1093.100006	0.000000	50.000351	0.992230	0.000000	0.000000	46.297510	50.000000
0.240000	29.999974	0.000000	0.990691	0.000000	-1092.800006	0.000000	50.000373	0.992274	0.000000	0.000000	46.297907	50.000000
0.250000	29.999974	0.000000	0.990727	0.000000	-1092.500006	0.000000	50.000396	0.992314	0.000000	0.000000	46.298299	50.000000
0.260000	29.999974	0.000000	0.990762	0.000000	-1092.200006	0.000000	50.000420	0.992352	0.000000	0.000000	46.298686	50.000000
0.270000	29.999974	0.000000	0.990796	0.000000	-1091.900007	0.000000	50.000444	0.992388	0.000000	0.000000	46.299066	50.000000
0.280000	29.999974	0.000000	0.990829	0.000000	-1091.600007	0.000000	50.000468	0.992422	0.000000	0.000000	46.299439	50.000000
0.290000	29.999974	0.000000	0.990862	0.000000	-1091.300007	0.000000	50.000492	0.992455	0.000000	0.000000	46.299803	50.000000
0.300000	29.999974	0.000000	0.990893	0.000000	-1091.000007	0.000000	50.000517	0.992487	0.000000	0.000000	46.300159	50.000000
0.310000	29.999974	0.000000	0.990923	0.000000	-1090.700008	0.000000	50.000542	0.992517	0.000000	0.000000	46.300505	50.000000
0.320000	29.999974	0.000000	0.990952	0.000000	-1090.400008	0.000000	50.000567	0.992547	0.000000	0.000000	46.300842	50.000000
0.330000	29.999974	0.000000	0.990980	0.000000	-1090.100008	0.000000	50.000593	0.992576	0.000000	0.000000	46.301169	50.000000
0.345000	29.999974	0.000000	0.991020	0.000000	-1089.650009	0.000000	50.000632	0.992632	0.000000	0.000000	46.301793	50.000000
0.355000	29.999974	0.000000	0.991044	0.000000	-1089.350009	0.000000	50.000659	0.992659	0.000000	0.000000	46.302089	50.000000
0.365000	29.999974	0.000000	0.991068	0.000000	-1089.050009	0.000000	50.000685	0.992686	0.000000	0.000000	46.302376	50.000000
0.375000	29.999974	0.000000	0.991091	0.000000	-1088.750009	0.000000	50.000712	0.992712	0.000000	0.000000	46.302651	50.000000
0.385000	29.999974	0.000000	0.991112	0.000000	-1088.450010	0.000000	50.000740	0.992737	0.000000	0.000000	46.302917	50.000000
0.395000	29.999975	0.000000	0.991132	0.000000	-1088.150010	0.000000	50.000767	0.992762	0.000000	0.000000	46.303172	50.000000
0.405000	29.999975	0.000000	0.991151	0.000000	-1087.850010	0.000000	50.000795	0.992787	0.000000	0.000000	46.303418	50.000000
0.420000	29.999975	0.000000	0.991178	0.000000	-1087.400011	0.000000	50.000837	0.992812	0.000000	0.000000	46.303653	50.000000
0.430000	29.999975	0.000000	0.991194	0.000000	-1087.100011	0.000000	50.000865	0.992836	0.000000	0.000000	46.303878	50.000000
0.440000	29.999975	0.000000	0.991209	0.000000	-1086.800011	0.000000	50.000893	0.992859	0.000000	0.000000	46.304094	50.000000
0.450000	29.999975	0.000000	0.991223	0.000000	-1086.500011	0.000000	50.000922	0.992883	0.000000	0.000000	46.304299	50.000000
0.460000	29.999976	0.000000	0.991236	0.000000	-1086.200012	0.000000	50.000951	0.992906	0.000000	0.000000	46.304495	50.000000
0.470000	29.999976	0.000000	0.991248	0.000000	-1085.900012	0.000000	50.000980	0.992928	0.000000	0.000000	46.304682	50.000000
0.480000	29.999976	0.000000	0.991258	0.000000	-1085.600012	0.000000	50.001009	0.992950	0.000000	0.000000	46.304859	50.000000
0.490000	29.999976	0.000000	0.991268	0.000000	-1085.300012	0.000000	50.001038	0.992972	0.000000	0.000000	46.305027	50.000000
0.500000	29.999976	0.000000	0.991277	0.000000	-1085.000013	0.000000	50.001068	0.992994	0.000000	0.000000	46.305186	50.000000
0.510000	29.999977	0.000000	0.991285	0.000000	-1084.700013	0.000000	50.001098	0.993015	0.000000	0.000000	46.305337	50.000000
0.520000	29.999977	0.000000	0.991292	0.000000	-1084.400013	0.000000	50.001127	0.993036	0.000000	0.000000	46.305478	50.000000
0.535000	29.999977	0.000000	0.991300	0.000000	-1083.950014	0.000000	50.001172	0.993077	0.000000	0.000000	46.305735	50.000000
0.545000	29.999977	0.000000	0.991305	0.000000	-1083.650014	0.000000	50.001202	0.993097	0.000000	0.000000	46.305851	50.000000
0.555000	29.999978	0.000000	0.991308	0.000000	-1083.350014	0.000000	50.001233	0.993116	0.000000	0.000000	46.305958	50.000000
0.565000	29.999978	0.000000	0.991311	0.000000	-1083.050014	0.000000	50.001263	0.993136	0.000000	0.000000	46.306058	50.000000
0.575000	29.999978	0.000000	0.991312	0.000000	-1082.750014	0.000000	50.001294	0.993155	0.000000	0.000000	46.306149	50.000000
0.585000	29.999978	0.000000	0.991313	0.000000	-1082.450015	0.000000	50.001324	0.993173	0.000000	0.000000	46.306233	50.000000
0.595000	29.999978	0.000000	0.991313	0.000000	-1082.150015	0.000000	50.001355	0.993192	0.000000	0.000000	46.306309	50.000000
0.605000	29.999979	0.000000	0.991312	0.000000	-1081.850015	0.000000	50.001386	0.993210	0.000000	0.000000	46.306377	50.000000
0.615000	29.999979	0.000000	0.991311	0.000000	-1081.550015	0.000000	50.001417	0.993228	0.000000	0.000000	46.306438	50.000000
0.630000	29.999979	0.000000	0.991307	0.000000	-1081.100016	0.000000	50.001463	0.993245	0.000000	0.000000	46.306492	50.000000
0.640000	29.999980	0.000000	0.991303	0.000000	-1080.800016	0.000000	50.001494	0.993262	0.000000	0.000000	46.306538	50.000000
0.650000	29.999980	0.000000	0.991299	0.000000	-1080.500016	0.000000	50.001526	0.993279	0.000000	0.000000	46.306578	50.000000
0.660000	29.999980	0.000000	0.991293	0.000000	-1080.200016	0.000000	50.001557	0.993296	0.000000	0.000000	46.306610	50.000000
0.670000	29.999980	0.000000	0.991287	0.000000	-1079.900017	0.000000	50.001588	0.993312	0.000000	0.000000	46.306636	50.000000
0.680000	29.999981	0.000000	0.991281	0.000000	-1079.600017	0.000000	50.001619	0.993328	0.000000	0.000000	46.306655	50.000000
0.690000	29.999981	0.000000	0.991273	0.000000	-1079.300017	0.000000	50.001651	0.993344	0.000000	0.000000	46.306667	50.000000
0.700000	29.999981	0.000000	0.991265	0.000000	-1079.000017	0.000000	50.001682	0.993360	0.000000	0.000000	46.306673	50.000000
0.710000	29.999982	0.000000	0.991256	0.000000	-1078.700017	0.000000	50.001714	0.993375	0.000000	0.000000	46.306673	50.000000
0.720000	29.999982	0.000000	0.991247	0.000000	-1078.400017	0.000000	50.001745	0.993390	0.000000	0.000000	46.306666	50.000000
0.735000	29.999982	0.000000	0.991231	0.000000	-1077.950018	0.000000	50.001792	0.993419	0.000000	0.000000	46.306635	50.000000
0.745000	29.999983	0.000000	0.991220	0.000000	-1077.650018	0.000000	50.001824	0.993434	0.000000	0.000000	46.306610	50.000000
0.755000	29.999983	0.000000	0.991208	0.000000	-1077.350018	0.000000	50.001856	0.993448	0.000000	0.000000	46.306580	50.000000
0.765000	29.999983	0.000000	0.991196	0.000000	-1077.050018	0.000000	50.001887	0.993461	0.000000	0.000000	46.306544	50.000000
0.775000	29.999983	0.000000	0.991183	0.000000	-1076.750018	0.000000	50.001919	0.993475	0.000000	0.000000	46.306503	50.000000
0.785000	29.999984	0.000000	0.991169	0.000000	-1076.450019	0.000000	50.001950	0.993488	0.000000	0.000000	46.306456	50.000000
0.795000	29.999984	0.000000	0.991155	0.000000	-1076.150019	0.000000	50.001982	0.993501	0.000000	0.000000	46.306404	50.000000
0.805000	29.999984	0.000000	0.991141	0.000000	-1075.850019	0.000000	50.002014	0.993514	0.000000	0.000000	46.306346	50.000000
0.815000	29.999985	0.000000	0.991125	0.000000	-1075.550019	0.000000	50.002045	0.993527	0.000000	0.000000	46.306284	50.000000
0.830000	29.999985	0.000000	0.991101	0.000000	-1075.100019	0.000000	50.002092	0.993539	0.000000	0.000000	46.306216	50.000000
0.840000	29.999985	0.000000	0.991085	0.000000	-1074.800020	0.000000	50.002124	0.993551	0.000000	0.000000	46.306144	50.000000
0.850000	29.999986	0.000000	0.991067	0.000000	-1074.500020	0.000000	50.002155	0.993563	0.000000	0.000000	46.306066	50.000000
0.860000	29.999986	0.000000	0.991050	0.000000	-1074.200020	0.000000	50.002187	0.993575	0.000000	0.000000	46.305984	50.000000
0.870000	29.999986	0.000000	0.991031	0.000000	-1073.900020	0.000000	50.002218	0.993586	0.000000	0.000000	46.305898	50.000000
0.880000	29.999987	0.000000	0.991013	0.000000	-1073.600020	0.000000	50.002250	0.993597	0.000000	0.000000	46.305807	50.000000
0.890000	29.999987	0.000000	0.990994	0.000000	-1073.300020	0.000000	50.002281	0.993608	0.000000	0.000000	46.305711	50.000000
0.900000	29.999987	0.000000	0.990974	0.000000	-1073.000020	0.000000	50.002312	0.993619	0.000000	0.000000	46.305611	50.000000
0.910000	29.999987	0.000000	0.990954	0.000000	-1072.700021	0.000000	50.002344	0.993629	0.000000	0.000000	46.305507	50.000000
0.920000	29.999988	0.000000	0.990933	0.000000	-1072.400021	0.000000	50.002375	0.993640	0.000000	0.000000	46.305399	50.000000
0.935000	29.999988	0.000000	0.990902	0.000000	-1071.950021	0.000000	50.002422	0.993660	0.000000	0.000000	46.305170	50.000000
0.945000	29.999988	0.000000	0.990880	0.000000	-1071.650021	0.000000	50.002453	0.993669	0.000000	0.000000	46.305050	50.000000
0.955000	29.999989	0.000000	0.990858	0.000000	-1071.350021	0.000000	50.002484	0.993679	0.000000	0.000000	46.304926	50.000000
0.965000	29.999989	0.000000	0.990836	0.000000	-1071.050021	0.000000	50.002515	0.993688	0.000000	0.000000	46.304798	50.000000
0.975000	29.999989	0.000000	0.990813	0.000000	-1070.750021	0.000000	50.002546	0.993697	0.000000	0.000000	46.304667	50.000000
0.985000	29.999990	0.000000	0.990790	0.000000	-1070.450022	0.000000	50.002576	0.993706	0.000000	0.000000	46.304532	50.000000
0.995000	29.999990	0.000000	0.990766	0.000000	-1070.150022	0.000000	50.002607	0.993715	0.000000	0.000000	46.304393	50.000000
1.005000	29.999990	0.000000	0.990743	0.000000	-1069.850022	0.000000	50.002638	0.993724	0.000000	0.000000	46.304252	50.000000
1.015000	29.999990	0.000000	0.990718	0.000000	-1069.550022	0.000000	50.002668	0.993732	0.000000	0.000000	46.304106	50.000000
1.025000	29.999991	0.000000	0.990694	0.000000	-1069.250022	0.000000	50.002699	0.993740	0.000000	0.000000	46.303958	50.000000
1.040000	29.999991	0.000000	0.990656	0.000000	-1068.800022	0.000000	50.002744	0.993748	0.000000	0.000000	46.303807	50.000000
1.050000	29.999991	0.000000	0.990631	0.000000	-1068.500022	0.000000	50.002775	0.993756	0.000000	0.000000	46.303652	50.000000
1.060000	29.999992	0.000000	0.990605	0.000000	-1068.200022	0.000000	50.002805	0.993763	0.000000	0.000000	46.303495	50.000000
1.070000	29.999992	0.000000	0.990579	0.000000	-1067.900022	0.000000	50.002835	0.993771	0.000000	0.000000	46.303334	50.000000
1.080000	29.999992	0.000000	0.990553	0.000000	-1067.600022	0.000000	50.002865	0.993778	0.000000	0.000000	46.303171	50.000000
1.090000	29.999993	0.000000	0.990526	0.000000	-1067.300023	0.000000	50.002895	0.993785	0.000000	0.000000	46.303005	50.000000
1.100000	29.999993	0.000000	0.990499	0.000000	-1067.000023	0.000000	50.002925	0.993792	0.000000	0.000000	46.302836	50.000000
1.110000	29.999993	0.000000	0.990472	0.000000	-1066.700023	0.000000	50.002954	0.993799	0.000000	0.000000	46.302665	50.000000
1.125000	29.999994	0.000000	0.990431	0.000000	-1066.250023	0.000000	50.002999	0.993812	0.000000	0.000000	46.302315	50.000000
1.135000	29.999994	0.000000	0.990403	0.000000	-1065.950023	0.000000	50.003028	0.993818	0.000000	0.000000	46.302136	50.000000
1.145000	29.999994	0.000000	0.990376	0.000000	-1065.650023	0.000000	50.003057	0.993824	0.000000	0.000000	46.301955	50.000000
1.155000	29.999994	0.000000	0.990347	0.000000	-1065.350023	0.000000	50.003086	0.993830	0.000000	0.000000	46.301772	50.000000
1.165000	29.999995	0.000000	0.990319	0.000000	-1065.050023	0.000000	50.003116	0.993836	0.000000	0.000000	46.301586	50.000000
1.175000	29.999995	0.000000	0.990290	0.000000	-1064.750023	0.000000	50.003145	0.993842	0.000000	0.000000	46.301398	50.000000
1.185000	29.999995	0.000000	0.990261	0.000000	-1064.450023	0.000000	50.003173	0.993847	0.000000	0.000000	46.301208	50.000000
1.195000	29.999995	0.000000	0.990232	0.000000	-1064.150023	0.000000	50.003202	0.993853	0.000000	0.000000	46.301016	50.000000
1.205000	29.999996	0.000000	0.990203	0.000000	-1063.850023	0.000000	50.003231	0.993858	0.000000	0.000000	46.300822	50.000000
1.220000	29.999996	0.000000	0.990159	0.000000	-1063.400023	0.000000	50.003273	0.993863	0.000000	0.000000	46.300627	50.000000
1.230000	29.999996	0.000000	0.990129	0.000000	-1063.100023	0.000000	50.003302	0.993868	0.000000	0.000000	46.300429	50.000000
1.240000	29.999997	0.000000	0.990099	0.000000	-1062.800023	0.000000	50.003330	0.993873	0.000000	0.000000	46.300229	50.000000
1.250000	29.999997	0.000000	0.990069	0.000000	-1062.500023	0.000000	50.003358	0.993877	0.000000	0.000000	46.300028	50.000000
1.260000	29.999997	0.000000	0.990039	0.000000	-1062.200024	0.000000	50.003386	0.993882	0.000000	0.000000	46.299825	50.000000
1.270000	29.999997	0.000000	0.990009	0.000000	-1061.900024	0.000000	50.003413	0.993886	0.000000	0.000000	46.299621	50.000000
1.280000	29.999998	0.000000	0.989978	0.000000	-1061.600024	0.000000	50.003441	0.993890	0.000000	0.000000	46.299415	50.000000
1.295000	29.999998	0.000000	0.989932	0.000000	-1061.150024	0.000000	50.003482	0.993898	0.000000	0.000000	46.298999	50.000000
1.305000	29.999998	0.000000	0.989901	0.000000	-1060.850024	0.000000	50.003509	0.993902	0.000000	0.000000	46.298788	50.000000
1.315000	29.999998	0.000000	0.989870	0.000000	-1060.550024	0.000000	50.003536	0.993906	0.000000	0.000000	46.298576	50.000000
1.325000	29.999999	0.000000	0.989839	0.000000	-1060.250024	0.000000	50.003563	0.993910	0.000000	0.000000	46.298363	50.000000
1.335000	29.999999	0.000000	0.989808	0.000000	-1059.950024	0.000000	50.003590	0.993913	0.000000	0.000000	46.298149	50.000000
1.345000	29.999999	0.000000	0.989777	0.000000	-1059.650024	0.000000	50.003617	0.993916	0.000000	0.000000	46.297934	50.000000
1.355000	29.999999	0.000000	0.989745	0.000000	-1059.350024	0.000000	50.003643	0.993920	0.000000	0.000000	46.297717	50.000000
1.365000	30.000000	0.000000	0.989714	0.000000	-1059.050024	0.000000	50.003670	0.993923	0.000000	0.000000	46.297499	50.000000
1.380000	30.000000	0.000000	0.989666	0.000000	-1058.600024	0.000000	50.003709	0.993926	0.000000	0.000000	46.297281	50.000000
1.390000	30.000000	0.000000	0.989635	0.000000	-1058.300024	0.000000	50.003735	0.993929	0.000000	0.000000	46.297061	50.000000
1.400000	30.000000	0.000000	0.989603	0.000000	-1058.000024	0.000000	50.003761	0.993931	0.000000	0.000000	46.296840	50.000000
1.410000	30.000001	0.000000	0.989571	0.000000	-1057.700024	0.000000	50.003787	0.993934	0.000000	0.000000	46.296619	50.000000
1.420000	30.000001	0.000000	0.989539	0.000000	-1057.400024	0.000000	50.003812	0.993936	0.000000	0.000000	46.296396	50.000000
1.430000	30.000001	0.000000	0.989507	0.000000	-1057.100024	0.000000	50.003838	0.993939	0.000000	0.000000	46.296173	50.000000
1.445000	30.000001	0.000000	0.989459	0.000000	-1056.650024	0.000000	50.003876	0.993943	0.000000	0.000000	46.295724	50.000000
1.455000	30.000001	0.000000	0.989427	0.000000	-1056.350024	0.000000	50.003901	0.993946	0.000000	0.000000	46.295499	50.000000
1.465000	30.000002	0.000000	0.989395	0.000000	-1056.050024	0.000000	50.003925	0.993948	0.000000	0.000000	46.295272	50.000000
1.475000	30.000002	0.000000	0.989363	0.000000	-1055.750024	0.000000	50.003950	0.993950	0.000000	0.000000	46.295046	50.000000
1.485000	30.000002	0.000000	0.989331	0.000000	-1055.450024	0.000000	50.003975	0.993951	0.000000	0.000000	46.294818	50.000000
1.495000	30.000002	0.000000	0.989298	0.000000	-1055.150024	0.000000	50.003999	0.993953	0.000000	0.000000	46.294591	50.000000
1.505000	30.000002	0.000000	0.989266	0.000000	-1054.850024	0.000000	50.004023	0.993955	0.000000	0.000000	46.294362	50.000000
1.515000	30.000003	0.000000	0.989234	0.000000	-1054.550024	0.000000	50.004047	0.993956	0.000000	0.000000	46.294133	50.000000
1.525000	30.000003	0.000000	0.989201	0.000000	-1054.250024	0.000000	50.004071	0.993958	0.000000	0.000000	46.293904	50.000000
1.535000	30.000003	0.000000	0.989169	0.000000	-1053.950024	0.000000	50.004095	0.993959	0.000000	0.000000	46.293675	50.000000
1.545000	30.000003	0.000000	0.989137	0.000000	-1053.650024	0.000000	50.004119	0.993960	0.000000	0.000000	46.293445	50.000000
1.555000	30.000003	0.000000	0.989105	0.000000	-1053.350024	0.000000	50.004142	0.993961	0.000000	0.000000	46.293214	50.000000
1.570000	30.000004	0.000000	0.989056	0.000000	-1052.900024	0.000000	50.004177	0.993963	0.000000	0.000000	46.292984	50.000000
1.580000	30.000004	0.000000	0.989024	0.000000	-1052.600024	0.000000	50.004200	0.993964	0.000000	0.000000	46.292753	50.000000
1.590000	30.000004	0.000000	0.988991	0.000000	-1052.300024	0.000000	50.004223	0.993964	0.000000	0.000000	46.292522	50.000000
1.600000	30.000004	0.000000	0.988959	0.000000	-1052.000024	0.000000	50.004246	0.993965	0.000000	0.000000	46.292291	50.000000
1.610000	30.000004	0.000000	0.988927	0.000000	-1051.700023	0.000000	50.004268	0.993966	0.000000	0.000000	46.292060	50.000000
1.620000	30.000004	0.000000	0.988895	0.000000	-1051.400023	0.000000	50.004291	0.993967	0.000000	0.000000	46.291828	50.000000
1.630000	30.000005	0.000000	0.988863	0.000000	-1051.100023	0.000000	50.004313	0.993967	0.000000	0.000000	46.291597	50.000000
1.640000	30.000005	0.000000	0.988830	0.000000	-1050.800023	0.000000	50.004335	0.993968	0.000000	0.000000	46.291366	50.000000
1.650000	30.000005	0.000000	0.988798	0.000000	-1050.500023	0.000000	50.004357	0.993968	0.000000	0.000000	46.291134	50.000000
1.665000	30.000005	0.000000	0.988750	0.000000	-1050.050023	0.000000	50.004389	0.993969	0.000000	0.000000	46.290671	50.000000
1.675000	30.000005	0.000000	0.988718	0.000000	-1049.750023	0.000000	50.004411	0.993969	0.000000	0.000000	46.290440	50.000000
