t	Vt	phi	theta	psi	PN	PE	H	ele	ail	rud	eng
0.010000	30.006772	0.000000	1.119041	0.000000	0.300017	0.000000	500.000000	0.868149	0.000000	0.000000	100.000000
0.020000	30.020308	0.000000	1.119051	0.000000	0.600152	0.000000	500.000003	0.868199	0.000000	0.000000	100.000000
0.030000	30.033833	0.000000	1.119086	0.000000	0.900423	0.000000	500.000010	0.868435	0.000000	0.000000	100.000000
0.040000	30.047348	0.000000	1.119162	0.000000	1.200829	0.000000	500.000021	0.868864	0.000000	0.000000	100.000000
0.050000	30.060852	0.000000	1.119286	0.000000	1.501370	0.000000	500.000037	0.869447	0.000000	0.000000	100.000000
0.060000	30.074346	0.000000	1.119463	0.000000	1.802046	0.000000	500.000059	0.870148	0.000000	0.000000	100.000000
0.070000	30.087828	0.000000	1.119697	0.000000	2.102857	0.000000	500.000086	0.870938	0.000000	0.000000	100.000000
0.080000	30.101299	0.000000	1.119989	0.000000	2.403802	0.000000	500.000121	0.871799	0.000000	0.000000	100.000000
0.095000	30.121463	0.000000	1.120534	0.000000	2.855473	0.000000	500.000186	0.873693	0.000000	0.000000	99.659583
0.105000	30.134821	0.000000	1.120969	0.000000	3.156755	0.000000	500.000240	0.874712	0.000000	0.000000	99.278407
0.115000	30.148075	0.000000	1.121459	0.000000	3.458169	0.000000	500.000302	0.875774	0.000000	0.000000	98.803448
0.125000	30.161201	0.000000	1.122003	0.000000	3.759715	0.000000	500.000373	0.876874	0.000000	0.000000	98.259663
0.135000	30.174182	0.000000	1.122599	0.000000	4.061392	0.000000	500.000453	0.878010	0.000000	0.000000	97.666124
0.145000	30.187005	0.000000	1.123246	0.000000	4.363198	0.000000	500.000544	0.879178	0.000000	0.000000	97.037392
0.160000	30.205908	0.000000	1.124306	0.000000	4.816146	0.000000	500.000699	0.880375	0.000000	0.000000	96.384574
0.170000	30.218306	0.000000	1.125070	0.000000	5.118267	0.000000	500.000816	0.881600	0.000000	0.000000	95.716133
0.180000	30.230528	0.000000	1.125876	0.000000	5.420511	0.000000	500.000944	0.882851	0.000000	0.000000	95.038502
0.190000	30.242572	0.000000	1.126724	0.000000	5.722877	0.000000	500.001084	0.884125	0.000000	0.000000	94.356565
0.200000	30.254437	0.000000	1.127609	0.000000	6.025362	0.000000	500.001236	0.885421	0.000000	0.000000	93.674016
0.210000	30.266123	0.000000	1.128531	0.000000	6.327965	0.000000	500.001400	0.886738	0.000000	0.000000	92.993640
0.225000	30.283341	0.000000	1.129976	0.000000	6.782086	0.000000	500.001669	0.889429	0.000000	0.000000	91.647224
0.235000	30.294585	0.000000	1.130979	0.000000	7.084976	0.000000	500.001865	0.890800	0.000000	0.000000	90.983888
0.245000	30.305656	0.000000	1.132009	0.000000	7.387977	0.000000	500.002074	0.892188	0.000000	0.000000	90.328352
0.255000	30.316555	0.000000	1.133066	0.000000	7.691088	0.000000	500.002296	0.893591	0.000000	0.000000	89.681215
0.265000	30.327284	0.000000	1.134147	0.000000	7.994307	0.000000	500.002532	0.895008	0.000000	0.000000	89.042892
0.275000	30.337845	0.000000	1.135249	0.000000	8.297633	0.000000	500.002782	0.896439	0.000000	0.000000	88.413663
0.285000	30.348242	0.000000	1.136372	0.000000	8.601063	0.000000	500.003045	0.897882	0.000000	0.000000	87.793700
0.295000	30.358475	0.000000	1.137513	0.000000	8.904596	0.000000	500.003323	0.899337	0.000000	0.000000	87.183096
0.305000	30.368548	0.000000	1.138670	0.000000	9.208231	0.000000	500.003615	0.900803	0.000000	0.000000	86.581884
0.315000	30.378463	0.000000	1.139842	0.000000	9.511966	0.000000	500.003921	0.902280	0.000000	0.000000	85.990049
0.325000	30.388222	0.000000	1.141026	0.000000	9.815800	0.000000	500.004242	0.903766	0.000000	0.000000	85.407543
0.340000	30.402557	0.000000	1.142821	0.000000	10.271731	0.000000	500.004752	0.905261	0.000000	0.000000	84.834294
0.350000	30.411937	0.000000	1.144029	0.000000	10.575803	0.000000	500.005110	0.906764	0.000000	0.000000	84.270207
0.360000	30.421170	0.000000	1.145244	0.000000	10.879968	0.000000	500.005482	0.908275	0.000000	0.000000	83.715176
0.370000	30.430258	0.000000	1.146463	0.000000	11.184226	0.000000	500.005870	0.909793	0.000000	0.000000	83.169085
0.380000	30.439203	0.000000	1.147686	0.000000	11.488573	0.000000	500.006273	0.911318	0.000000	0.000000	82.631808
0.390000	30.448007	0.000000	1.148911	0.000000	11.793009	0.000000	500.006691	0.912849	0.000000	0.000000	82.103217
0.400000	30.456673	0.000000	1.150137	0.000000	12.097532	0.000000	500.007124	0.914385	0.000000	0.000000	81.583180
0.410000	30.465202	0.000000	1.151362	0.000000	12.402141	0.000000	500.007572	0.915925	0.000000	0.000000	81.071563
0.420000	30.473598	0.000000	1.152585	0.000000	12.706835	0.000000	500.008036	0.917470	0.000000	0.000000	80.568230
0.430000	30.481861	0.000000	1.153805	0.000000	13.011612	0.000000	500.008514	0.919019	0.000000	0.000000	80.073047
0.440000	30.489994	0.000000	1.155020	0.000000	13.316471	0.000000	500.009008	0.920571	0.000000	0.000000	79.585880
0.455000	30.501970	0.000000	1.156831	0.000000	13.773910	0.000000	500.009777	0.923682	0.000000	0.000000	78.635058
0.465000	30.509787	0.000000	1.158030	0.000000	14.078969	0.000000	500.010309	0.925241	0.000000	0.000000	78.171141
0.475000	30.517481	0.000000	1.159219	0.000000	14.384105	0.000000	500.010855	0.926801	0.000000	0.000000	77.714713
0.485000	30.525054	0.000000	1.160399	0.000000	14.689317	0.000000	500.011417	0.928362	0.000000	0.000000	77.265647
0.495000	30.532508	0.000000	1.161568	0.000000	14.994604	0.000000	500.011994	0.929923	0.000000	0.000000	76.823817
0.505000	30.539845	0.000000	1.162726	0.000000	15.299965	0.000000	500.012586	0.931484	0.000000	0.000000	76.389100
0.515000	30.547067	0.000000	1.163871	0.000000	15.605399	0.000000	500.013192	0.933045	0.000000	0.000000	75.961373
0.525000	30.554175	0.000000	1.165002	0.000000	15.910905	0.000000	500.013814	0.934605	0.000000	0.000000	75.540517
0.540000	30.564616	0.000000	1.166672	0.000000	16.369295	0.000000	500.014774	0.936164	0.000000	0.000000	75.126413
0.550000	30.571449	0.000000	1.167765	0.000000	16.674975	0.000000	500.015432	0.937721	0.000000	0.000000	74.718947
0.560000	30.578174	0.000000	1.168842	0.000000	16.980722	0.000000	500.016104	0.939276	0.000000	0.000000	74.318002
0.570000	30.584793	0.000000	1.169902	0.000000	17.286536	0.000000	500.016792	0.940829	0.000000	0.000000	73.923469
0.580000	30.591309	0.000000	1.170943	0.000000	17.592416	0.000000	500.017493	0.942379	0.000000	0.000000	73.535235
0.590000	30.597722	0.000000	1.171966	0.000000	17.898361	0.000000	500.018209	0.943927	0.000000	0.000000	73.153194
0.600000	30.604034	0.000000	1.172970	0.000000	18.204369	0.000000	500.018938	0.945471	0.000000	0.000000	72.777237
0.615000	30.613329	0.000000	1.174437	0.000000	18.663498	0.000000	500.020059	0.948547	0.000000	0.000000	72.043164
0.625000	30.619396	0.000000	1.175390	0.000000	18.969660	0.000000	500.020823	0.950079	0.000000	0.000000	71.684843
0.635000	30.625368	0.000000	1.176321	0.000000	19.275883	0.000000	500.021601	0.951607	0.000000	0.000000	71.332200
0.645000	30.631247	0.000000	1.177230	0.000000	19.582165	0.000000	500.022393	0.953129	0.000000	0.000000	70.985136
0.655000	30.637033	0.000000	1.178116	0.000000	19.888506	0.000000	500.023198	0.954647	0.000000	0.000000	70.643556
0.665000	30.642728	0.000000	1.178979	0.000000	20.194903	0.000000	500.024016	0.956159	0.000000	0.000000	70.307366
0.675000	30.648334	0.000000	1.179819	0.000000	20.501358	0.000000	500.024847	0.957665	0.000000	0.000000	69.976473
0.685000	30.653852	0.000000	1.180635	0.000000	20.807867	0.000000	500.025690	0.959165	0.000000	0.000000	69.650787
0.695000	30.659283	0.000000	1.181426	0.000000	21.114432	0.000000	500.026547	0.960660	0.000000	0.000000	69.330217
0.710000	30.667261	0.000000	1.182567	0.000000	21.574379	0.000000	500.027855	0.962148	0.000000	0.000000	69.014675
0.720000	30.672482	0.000000	1.183296	0.000000	21.881077	0.000000	500.028743	0.963629	0.000000	0.000000	68.704077
0.730000	30.677621	0.000000	1.183999	0.000000	22.187826	0.000000	500.029643	0.965103	0.000000	0.000000	68.398336
0.740000	30.682680	0.000000	1.184677	0.000000	22.494626	0.000000	500.030555	0.966571	0.000000	0.000000	68.097370
0.750000	30.687659	0.000000	1.185328	0.000000	22.801477	0.000000	500.031478	0.968031	0.000000	0.000000	67.801096
0.760000	30.692560	0.000000	1.185953	0.000000	23.108376	0.000000	500.032413	0.969483	0.000000	0.000000	67.509435
0.770000	30.697384	0.000000	1.186551	0.000000	23.415325	0.000000	500.033360	0.970928	0.000000	0.000000	67.222307
0.780000	30.702132	0.000000	1.187122	0.000000	23.722321	0.000000	500.034317	0.972365	0.000000	0.000000	66.939634
0.790000	30.706806	0.000000	1.187666	0.000000	24.029364	0.000000	500.035286	0.973794	0.000000	0.000000	66.661341
0.800000	30.711407	0.000000	1.188182	0.000000	24.336454	0.000000	500.036266	0.975215	0.000000	0.000000	66.387352
0.815000	30.718182	0.000000	1.188906	0.000000	24.797173	0.000000	500.037755	0.978032	0.000000	0.000000	65.851994
0.825000	30.722604	0.000000	1.189353	0.000000	25.104376	0.000000	500.038761	0.979427	0.000000	0.000000	65.590482
0.835000	30.726957	0.000000	1.189772	0.000000	25.411622	0.000000	500.039777	0.980813	0.000000	0.000000	65.332987
0.845000	30.731242	0.000000	1.190164	0.000000	25.718911	0.000000	500.040803	0.982191	0.000000	0.000000	65.079442
0.855000	30.735460	0.000000	1.190527	0.000000	26.026243	0.000000	500.041838	0.983559	0.000000	0.000000	64.829778
0.865000	30.739611	0.000000	1.190863	0.000000	26.333616	0.000000	500.042884	0.984918	0.000000	0.000000	64.583929
0.875000	30.743698	0.000000	1.191169	0.000000	26.641031	0.000000	500.043938	0.986268	0.000000	0.000000	64.341831
0.890000	30.749701	0.000000	1.191577	0.000000	27.102229	0.000000	500.045537	0.987608	0.000000	0.000000	64.103420
0.900000	30.753630	0.000000	1.191813	0.000000	27.409744	0.000000	500.046614	0.988939	0.000000	0.000000	63.868632
0.910000	30.757497	0.000000	1.192020	0.000000	27.717298	0.000000	500.047700	0.990260	0.000000	0.000000	63.637407
0.920000	30.761303	0.000000	1.192200	0.000000	28.024890	0.000000	500.048794	0.991571	0.000000	0.000000	63.409683
0.930000	30.765050	0.000000	1.192350	0.000000	28.332520	0.000000	500.049897	0.992872	0.000000	0.000000	63.185401
0.940000	30.768738	0.000000	1.192473	0.000000	28.640187	0.000000	500.051007	0.994163	0.000000	0.000000	62.964503
0.950000	30.772368	0.000000	1.192567	0.000000	28.947890	0.000000	500.052125	0.995444	0.000000	0.000000	62.746931
0.960000	30.775942	0.000000	1.192633	0.000000	29.255630	0.000000	500.053251	0.996715	0.000000	0.000000	62.532628
0.975000	30.781204	0.000000	1.192678	0.000000	29.717305	0.000000	500.054954	0.999225	0.000000	0.000000	62.113613
0.985000	30.784639	0.000000	1.192674	0.000000	30.025132	0.000000	500.056097	1.000465	0.000000	0.000000	61.908791
0.995000	30.788021	0.000000	1.192641	0.000000	30.332994	0.000000	500.057248	1.001694	0.000000	0.000000	61.707024
1.005000	30.791349	0.000000	1.192580	0.000000	30.640888	0.000000	500.058406	1.002913	0.000000	0.000000	61.508259
1.015000	30.794626	0.000000	1.192491	0.000000	30.948816	0.000000	500.059569	1.004121	0.000000	0.000000	61.312445
1.025000	30.797851	0.000000	1.192375	0.000000	31.256776	0.000000	500.060739	1.005318	0.000000	0.000000	61.119534
1.035000	30.801026	0.000000	1.192231	0.000000	31.564768	0.000000	500.061916	1.006505	0.000000	0.000000	60.929475
1.045000	30.804151	0.000000	1.192059	0.000000	31.872792	0.000000	500.063098	1.007681	0.000000	0.000000	60.742222
1.060000	30.808741	0.000000	1.191751	0.000000	32.334885	0.000000	500.064881	1.008846	0.000000	0.000000	60.557726
1.070000	30.811745	0.000000	1.191511	0.000000	32.642985	0.000000	500.066077	1.010000	0.000000	0.000000	60.375941
1.080000	30.814703	0.000000	1.191244	0.000000	32.951115	0.000000	500.067277	1.011143	0.000000	0.000000	60.196822
1.090000	30.817614	0.000000	1.190950	0.000000	33.259275	0.000000	500.068483	1.012276	0.000000	0.000000	60.020324
1.100000	30.820479	0.000000	1.190630	0.000000	33.567463	0.000000	500.069693	1.013397	0.000000	0.000000	59.846404
1.110000	30.823300	0.000000	1.190283	0.000000	33.875679	0.000000	500.070908	1.014507	0.000000	0.000000	59.675017
1.120000	30.826076	0.000000	1.189910	0.000000	34.183924	0.000000	500.072127	1.015607	0.000000	0.000000	59.506122
1.130000	30.828809	0.000000	1.189511	0.000000	34.492196	0.000000	500.073350	1.016695	0.000000	0.000000	59.339676
1.140000	30.831500	0.000000	1.189085	0.000000	34.800495	0.000000	500.074577	1.017772	0.000000	0.000000	59.175640
1.155000	30.835461	0.000000	1.188399	0.000000	35.262994	0.000000	500.076424	1.019893	0.000000	0.000000	58.854634
1.165000	30.838048	0.000000	1.187910	0.000000	35.571359	0.000000	500.077660	1.020937	0.000000	0.000000	58.697587
1.175000	30.840594	0.000000	1.187396	0.000000	35.879749	0.000000	500.078899	1.021970	0.000000	0.000000	58.542791
1.185000	30.843100	0.000000	1.186856	0.000000	36.188165	0.000000	500.080141	1.022992	0.000000	0.000000	58.390211
1.195000	30.845567	0.000000	1.186292	0.000000	36.496606	0.000000	500.081386	1.024003	0.000000	0.000000	58.239809
1.205000	30.847995	0.000000	1.185704	0.000000	36.805071	0.000000	500.082633	1.025002	0.000000	0.000000	58.091550
1.215000	30.850385	0.000000	1.185091	0.000000	37.113561	0.000000	500.083883	1.025991	0.000000	0.000000	57.945397
1.225000	30.852738	0.000000	1.184454	0.000000	37.422074	0.000000	500.085135	1.026968	0.000000	0.000000	57.801316
1.240000	30.856195	0.000000	1.183455	0.000000	37.884887	0.000000	500.087017	1.027934	0.000000	0.000000	57.659273
1.250000	30.858457	0.000000	1.182759	0.000000	38.193458	0.000000	500.088273	1.028890	0.000000	0.000000	57.519234
1.260000	30.860684	0.000000	1.182040	0.000000	38.502051	0.000000	500.089532	1.029834	0.000000	0.000000	57.381166
1.270000	30.862876	0.000000	1.181298	0.000000	38.810666	0.000000	500.090791	1.030767	0.000000	0.000000	57.245036
1.280000	30.865034	0.000000	1.180534	0.000000	39.119303	0.000000	500.092052	1.031689	0.000000	0.000000	57.110814
1.290000	30.867158	0.000000	1.179747	0.000000	39.427962	0.000000	500.093314	1.032600	0.000000	0.000000	56.978467
1.305000	30.870286	0.000000	1.178525	0.000000	39.890989	0.000000	500.095208	1.034389	0.000000	0.000000	56.719278
1.315000	30.872328	0.000000	1.177684	0.000000	40.199699	0.000000	500.096471	1.035267	0.000000	0.000000	56.592376
1.325000	30.874338	0.000000	1.176821	0.000000	40.508430	0.000000	500.097735	1.036135	0.000000	0.000000	56.467230
1.335000	30.876316	0.000000	1.175937	0.000000	40.817181	0.000000	500.098999	1.036991	0.000000	0.000000	56.343811
1.345000	30.878264	0.000000	1.175032	0.000000	41.125951	0.000000	500.100263	1.037837	0.000000	0.000000	56.222092
1.355000	30.880181	0.000000	1.174106	0.000000	41.434741	0.000000	500.101527	1.038671	0.000000	0.000000	56.102044
1.365000	30.882069	0.000000	1.173160	0.000000	41.743549	0.000000	500.102791	1.039495	0.000000	0.000000	55.983641
1.375000	30.883927	0.000000	1.172195	0.000000	42.052377	0.000000	500.104054	1.040309	0.000000	0.000000	55.866856
1.385000	30.885755	0.000000	1.171209	0.000000	42.361222	0.000000	500.105316	1.041111	0.000000	0.000000	55.751663
1.400000	30.888442	0.000000	1.169695	0.000000	42.824525	0.000000	500.107208	1.041903	0.000000	0.000000	55.638036
1.410000	30.890200	0.000000	1.168661	0.000000	43.133416	0.000000	500.108468	1.042684	0.000000	0.000000	55.525950
1.420000	30.891931	0.000000	1.167609	0.000000	43.442324	0.000000	500.109727	1.043455	0.000000	0.000000	55.415380
1.430000	30.893635	0.000000	1.166538	0.000000	43.751249	0.000000	500.110984	1.044215	0.000000	0.000000	55.306302
1.440000	30.895312	0.000000	1.165450	0.000000	44.060191	0.000000	500.112240	1.044965	0.000000	0.000000	55.198692
1.450000	30.896963	0.000000	1.164343	0.000000	44.369150	0.000000	500.113494	1.045704	0.000000	0.000000	55.092527
1.460000	30.898588	0.000000	1.163219	0.000000	44.678125	0.000000	500.114747	1.046433	0.000000	0.000000	54.987783
1.470000	30.900188	0.000000	1.162078	0.000000	44.987117	0.000000	500.115997	1.047151	0.000000	0.000000	54.884438
1.480000	30.901763	0.000000	1.160920	0.000000	45.296124	0.000000	500.117245	1.047860	0.000000	0.000000	54.782470
1.495000	30.904082	0.000000	1.159151	0.000000	45.759664	0.000000	500.119113	1.049245	0.000000	0.000000	54.582576
1.505000	30.905596	0.000000	1.157952	0.000000	46.068710	0.000000	500.120355	1.049923	0.000000	0.000000	54.484608
1.515000	30.907087	0.000000	1.156737	0.000000	46.377771	0.000000	500.121595	1.050590	0.000000	0.000000	54.387931
1.525000	30.908554	0.000000	1.155507	0.000000	46.686847	0.000000	500.122831	1.051248	0.000000	0.000000	54.292526
1.535000	30.909998	0.000000	1.154261	0.000000	46.995937	0.000000	500.124065	1.051895	0.000000	0.000000	54.198372
1.545000	30.911420	0.000000	1.153000	0.000000	47.305042	0.000000	500.125296	1.052533	0.000000	0.000000	54.105449
1.555000	30.912819	0.000000	1.151724	0.000000	47.614160	0.000000	500.126523	1.053161	0.000000	0.000000	54.013739
1.565000	30.914197	0.000000	1.150434	0.000000	47.923293	0.000000	500.127747	1.053779	0.000000	0.000000	53.923222
1.575000	30.915553	0.000000	1.149130	0.000000	48.232439	0.000000	500.128968	1.054387	0.000000	0.000000	53.833880
1.585000	30.916887	0.000000	1.147812	0.000000	48.541599	0.000000	500.130185	1.054986	0.000000	0.000000	53.745695
1.600000	30.918848	0.000000	1.145810	0.000000	49.005364	0.000000	500.132003	1.055575	0.000000	0.000000	53.658648
1.610000	30.920132	0.000000	1.144458	0.000000	49.314556	0.000000	500.133211	1.056154	0.000000	0.000000	53.572722
1.620000	30.921395	0.000000	1.143094	0.000000	49.623762	0.000000	500.134414	1.056724	0.000000	0.000000	53.487900
1.630000	30.922638	0.000000	1.141718	0.000000	49.932979	0.000000	500.135613	1.057285	0.000000	0.000000	53.404165
1.640000	30.923863	0.000000	1.140329	0.000000	50.242210	0.000000	500.136808	1.057836	0.000000	0.000000	53.321500
1.650000	30.925068	0.000000	1.138929	0.000000	50.551452	0.000000	500.137999	1.058378	0.000000	0.000000	53.239888
1.660000	30.926254	0.000000	1.137517	0.000000	50.860706	0.000000	500.139185	1.058911	0.000000	0.000000	53.159313
1.670000	30.927422	0.000000	1.136093	0.000000	51.169972	0.000000	500.140366	1.059434	0.000000	0.000000	53.079761
1.680000	30.928571	0.000000	1.134658	0.000000	51.479250	0.000000	500.141542	1.059949	0.000000	0.000000	53.001214
1.695000	30.930264	0.000000	1.132486	0.000000	51.943188	0.000000	500.143298	1.060951	0.000000	0.000000	52.847078
1.705000	30.931369	0.000000	1.131026	0.000000	52.252494	0.000000	500.144462	1.061438	0.000000	0.000000	52.771459
1.715000	30.932457	0.000000	1.129555	0.000000	52.561811	0.000000	500.145622	1.061917	0.000000	0.000000	52.696787
1.725000	30.933528	0.000000	1.128074	0.000000	52.871139	0.000000	500.146775	1.062387	0.000000	0.000000	52.623047
1.735000	30.934582	0.000000	1.126583	0.000000	53.180477	0.000000	500.147924	1.062848	0.000000	0.000000	52.550225
1.745000	30.935620	0.000000	1.125084	0.000000	53.489826	0.000000	500.149067	1.063301	0.000000	0.000000	52.478308
1.755000	30.936641	0.000000	1.123576	0.000000	53.799185	0.000000	500.150205	1.063745	0.000000	0.000000	52.407283
1.765000	30.937646	0.000000	1.122059	0.000000	54.108555	0.000000	500.151337	1.064181	0.000000	0.000000	52.337135
1.775000	30.938636	0.000000	1.120533	0.000000	54.417934	0.000000	500.152463	1.064608	0.000000	0.000000	52.267852
1.790000	30.940090	0.000000	1.118230	0.000000	54.882022	0.000000	500.154142	1.065027	0.000000	0.000000	52.199421
1.795000	30.940570	0.000000	1.117458	0.000000	55.036722	0.000000	500.154698	1.065438	0.000000	0.000000	52.131830
1.805000	30.941514	0.000000	1.115909	0.000000	55.346131	0.000000	500.155807	1.065841	0.000000	0.000000	52.065066
1.820000	30.942900	0.000000	1.113572	0.000000	55.810261	0.000000	500.157458	1.066235	0.000000	0.000000	51.999117
1.830000	30.943808	0.000000	1.112005	0.000000	56.119692	0.000000	500.158552	1.066622	0.000000	0.000000	51.933971
1.840000	30.944701	0.000000	1.110431	0.000000	56.429133	0.000000	500.159639	1.067000	0.000000	0.000000	51.869616
1.850000	30.945581	0.000000	1.108852	0.000000	56.738583	0.000000	500.160720	1.067371	0.000000	0.000000	51.806042
1.860000	30.946446	0.000000	1.107266	0.000000	57.048041	0.000000	500.161794	1.067734	0.000000	0.000000	51.743236
